        Time               NuH               NuC               Nua      Temperature
  250.000000    2.12094166e-05    0.00000000e+00    1.06047083e-05    1.64052419e-09
  500.000000    1.09726408e-04    0.00000000e+00    5.48632042e-05    5.44959944e-13
  750.000000    2.47848859e-04    0.00000000e+00    1.23924430e-04    5.32655937e-13
 1000.000000    3.94200934e-04    0.00000000e+00    1.97100467e-04    4.98990630e-13
 1250.000000    5.21979361e-04    0.00000000e+00    2.60989681e-04    4.67825964e-13
 1500.000000    6.30249550e-04    0.00000000e+00    3.15124775e-04    4.47660281e-13
 1750.000000    7.22849976e-04    0.00000000e+00    3.61424988e-04    8.98980433e-13
 2000.000000    7.97359954e-04    0.00000000e+00    3.98679977e-04    1.35740801e-11
 2250.000000    8.49182045e-04    0.00000000e+00    4.24591023e-04    1.32469268e-10
 2500.000000    8.75859179e-04    0.00000000e+00    4.37929590e-04    6.69202890e-10
 2750.000000    8.78426997e-04    0.00000000e+00    4.39213499e-04    2.44799467e-09
 3000.000000    8.63367073e-04    0.00000000e+00    4.31683537e-04    1.53330980e-08
 3250.000000    8.41029219e-04    0.00000000e+00    4.20514610e-04    1.72898652e-07
 3500.000000    8.20763089e-04    0.00000000e+00    4.10381544e-04    1.58110767e-06
 3750.000000    8.08378490e-04    0.00000000e+00    4.04189245e-04    9.56205908e-06
 4000.000000    8.05685609e-04    0.00000000e+00    4.02842804e-04    3.91883661e-05
 4250.000000    8.09236536e-04    0.00000000e+00    4.04618268e-04    1.16381603e-04
 4500.000000    8.14011891e-04    0.00000000e+00    4.07005946e-04    2.68518612e-04
 4750.000000    8.16885702e-04    0.00000000e+00    4.08442851e-04    5.14756085e-04
 5000.000000    8.17145780e-04    0.00000000e+00    4.08572890e-04    8.67405390e-04
 5250.000000    8.16304806e-04    0.00000000e+00    4.08152403e-04    1.33642727e-03
 5500.000000    8.15113556e-04    0.00000000e+00    4.07556778e-04    1.94069529e-03
 5750.000000    8.14483760e-04    0.00000000e+00    4.07241880e-04    2.72994517e-03
 6000.000000    8.14823727e-04    0.00000000e+00    4.07411864e-04    3.79798095e-03
 6250.000000    8.15416351e-04    0.00000000e+00    4.07708175e-04    5.29526580e-03
 6500.000000    8.16104388e-04    0.00000000e+00    4.08052194e-04    7.45731402e-03
 6750.000000    8.16577856e-04    0.00000000e+00    4.08288928e-04    1.06030418e-02
 7000.000000    8.16934853e-04    0.00000000e+00    4.08467426e-04    1.50529751e-02
 7250.000000    8.17149034e-04    0.00000000e+00    4.08574517e-04    2.10216643e-02
 7500.000000    8.17109641e-04    0.00000000e+00    4.08554821e-04    2.85696062e-02
 7750.000000    8.17194931e-04    0.00000000e+00    4.08597465e-04    3.76227720e-02
 8000.000000    8.17142950e-04    0.00000000e+00    4.08571475e-04    4.80569954e-02
 8250.000000    8.16829802e-04    0.00000000e+00    4.08414901e-04    5.97834213e-02
 8500.000000    8.16358093e-04    0.00000000e+00    4.08179047e-04    7.26657059e-02
 8750.000000    8.15623674e-04    0.00000000e+00    4.07811837e-04    8.62646733e-02
 9000.000000    8.14576837e-04    0.00000000e+00    4.07288418e-04    9.97145289e-02
 9250.000000    8.13128124e-04    0.00000000e+00    4.06564062e-04    1.11916812e-01
 9500.000000    8.11506213e-04    0.00000000e+00    4.05753106e-04    1.21819010e-01
 9750.000000    8.09777580e-04    0.00000000e+00    4.04888790e-04    1.28635363e-01
 10000.000000    8.07920264e-04    0.00000000e+00    4.03960132e-04    1.32069569e-01
 10250.000000    8.06293786e-04    0.00000000e+00    4.03146893e-04    1.32378527e-01
 10500.000000    8.05120636e-04    0.00000000e+00    4.02560318e-04    1.30209270e-01
 10750.000000    8.04513300e-04    0.00000000e+00    4.02256650e-04    1.26445993e-01
 11000.000000    8.04638407e-04    0.00000000e+00    4.02319203e-04    1.22100622e-01
 11250.000000    8.05676039e-04    0.00000000e+00    4.02838020e-04    1.18114241e-01
 11500.000000    8.07633059e-04    0.00000000e+00    4.03816529e-04    1.15201170e-01
 11750.000000    8.10309870e-04    0.00000000e+00    4.05154935e-04    1.13871441e-01
 12000.000000    8.13601959e-04    0.00000000e+00    4.06800980e-04    1.14480141e-01
 12250.000000    8.17307585e-04    0.00000000e+00    4.08653793e-04    1.17209011e-01
 12500.000000    8.21027441e-04    0.00000000e+00    4.10513721e-04    1.22104197e-01
 12750.000000    8.24439561e-04    0.00000000e+00    4.12219780e-04    1.29160781e-01
 13000.000000    8.27320140e-04    0.00000000e+00    4.13660070e-04    1.38288138e-01
 13250.000000    8.29479104e-04    0.00000000e+00    4.14739552e-04    1.49202989e-01
 13500.000000    8.30825254e-04    0.00000000e+00    4.15412627e-04    1.61425273e-01
 13750.000000    8.31439242e-04    0.00000000e+00    4.15719621e-04    1.74335553e-01
 14000.000000    8.31444180e-04    0.00000000e+00    4.15722090e-04    1.87212954e-01
 14250.000000    8.30841545e-04    0.00000000e+00    4.15420772e-04    1.99354553e-01
 14500.000000    8.29656681e-04    0.00000000e+00    4.14828341e-04    2.10254247e-01
 14750.000000    8.27999245e-04    0.00000000e+00    4.13999623e-04    2.19650476e-01
 15000.000000    8.25934889e-04    0.00000000e+00    4.12967444e-04    2.27467350e-01
 15250.000000    8.23527075e-04    0.00000000e+00    4.11763537e-04    2.33798851e-01
 15500.000000    8.20914629e-04    0.00000000e+00    4.10457315e-04    2.38885323e-01
 15750.000000    8.18265731e-04    0.00000000e+00    4.09132865e-04    2.43011830e-01
 16000.000000    8.15690313e-04    0.00000000e+00    4.07845157e-04    2.46442513e-01
 16250.000000    8.13313423e-04    0.00000000e+00    4.06656712e-04    2.49434264e-01
 16500.000000    8.11316098e-04    0.00000000e+00    4.05658049e-04    2.52215674e-01
 16750.000000    8.09804729e-04    0.00000000e+00    4.04902365e-04    2.54936445e-01
 17000.000000    8.08811431e-04    0.00000000e+00    4.04405716e-04    2.57686415e-01
 17250.000000    8.08363772e-04    0.00000000e+00    4.04181886e-04    2.60534808e-01
 17500.000000    8.08443906e-04    0.00000000e+00    4.04221953e-04    2.63510458e-01
 17750.000000    8.08930810e-04    0.00000000e+00    4.04465405e-04    2.66593640e-01
 18000.000000    8.09673954e-04    0.00000000e+00    4.04836977e-04    2.69759696e-01
 18250.000000    8.10556348e-04    0.00000000e+00    4.05278174e-04    2.72990839e-01
 18500.000000    8.11444218e-04    0.00000000e+00    4.05722109e-04    2.76249862e-01
 18750.000000    8.12209447e-04    0.00000000e+00    4.06104723e-04    2.79493710e-01
 19000.000000    8.12802448e-04    0.00000000e+00    4.06401224e-04    2.82702974e-01
 19250.000000    8.13230285e-04    0.00000000e+00    4.06615143e-04    2.85865010e-01
 19500.000000    8.13498254e-04    0.00000000e+00    4.06749127e-04    2.88957434e-01
 19750.000000    8.13633184e-04    0.00000000e+00    4.06816592e-04    2.91971748e-01
 20000.000000    8.13691427e-04    0.00000000e+00    4.06845714e-04    2.94919406e-01
 20250.000000    8.13699617e-04    0.00000000e+00    4.06849808e-04    2.97806410e-01
 20500.000000    8.13647194e-04    0.00000000e+00    4.06823597e-04    3.00635149e-01
 20750.000000    8.13526701e-04    0.00000000e+00    4.06763350e-04    3.03424181e-01
 21000.000000    8.13329901e-04    0.00000000e+00    4.06664950e-04    3.06195488e-01
 21250.000000    8.13022755e-04    0.00000000e+00    4.06511377e-04    3.08957625e-01
 21500.000000    8.12578720e-04    0.00000000e+00    4.06289360e-04    3.11720544e-01
 21750.000000    8.12001828e-04    0.00000000e+00    4.06000914e-04    3.14502413e-01
 22000.000000    8.11299282e-04    0.00000000e+00    4.05649641e-04    3.17310744e-01
 22250.000000    8.10477623e-04    0.00000000e+00    4.05238812e-04    3.20141414e-01
 22500.000000    8.09566120e-04    0.00000000e+00    4.04783060e-04    3.22995425e-01
 22750.000000    8.08606851e-04    0.00000000e+00    4.04303426e-04    3.25872855e-01
 23000.000000    8.07625842e-04    0.00000000e+00    4.03812921e-04    3.28759750e-01
 23250.000000    8.06645348e-04    0.00000000e+00    4.03322674e-04    3.31639514e-01
 23500.000000    8.05693964e-04    0.00000000e+00    4.02846982e-04    3.34502056e-01
 23750.000000    8.04785316e-04    0.00000000e+00    4.02392658e-04    3.37331164e-01
 24000.000000    8.03914180e-04    0.00000000e+00    4.01957090e-04    3.40102707e-01
 24250.000000    8.03077439e-04    0.00000000e+00    4.01538719e-04    3.42799483e-01
 24500.000000    8.02273384e-04    0.00000000e+00    4.01136692e-04    3.45409489e-01
 24750.000000    8.01487245e-04    0.00000000e+00    4.00743623e-04    3.47914973e-01
 25000.000000    8.00705334e-04    0.00000000e+00    4.00352667e-04    3.50300728e-01
 25250.000000    7.99925895e-04    0.00000000e+00    3.99962948e-04    3.52563500e-01
 25500.000000    7.99146635e-04    0.00000000e+00    3.99573317e-04    3.54702318e-01
 25750.000000    7.98361639e-04    0.00000000e+00    3.99180819e-04    3.56714843e-01
 26000.000000    7.97574054e-04    0.00000000e+00    3.98787027e-04    3.58608888e-01
 26250.000000    7.96792364e-04    0.00000000e+00    3.98396182e-04    3.60401489e-01
 26500.000000    7.96018056e-04    0.00000000e+00    3.98009028e-04    3.62107785e-01
 26750.000000    7.95253239e-04    0.00000000e+00    3.97626619e-04    3.63744902e-01
 27000.000000    7.94504838e-04    0.00000000e+00    3.97252419e-04    3.65338870e-01
 27250.000000    7.93775058e-04    0.00000000e+00    3.96887529e-04    3.66915623e-01
 27500.000000    7.93060358e-04    0.00000000e+00    3.96530179e-04    3.68495082e-01
 27750.000000    7.92359797e-04    0.00000000e+00    3.96179899e-04    3.70098868e-01
 28000.000000    7.91671661e-04    0.00000000e+00    3.95835830e-04    3.71749836e-01
 28250.000000    7.90987332e-04    0.00000000e+00    3.95493666e-04    3.73462351e-01
 28500.000000    7.90298230e-04    0.00000000e+00    3.95149115e-04    3.75244255e-01
 28750.000000    7.89597960e-04    0.00000000e+00    3.94798980e-04    3.77103478e-01
 29000.000000    7.88876532e-04    0.00000000e+00    3.94438266e-04    3.79042476e-01
 29250.000000    7.88122210e-04    0.00000000e+00    3.94061105e-04    3.81053707e-01
 29500.000000    7.87327780e-04    0.00000000e+00    3.93663890e-04    3.83126678e-01
 29750.000000    7.86487379e-04    0.00000000e+00    3.93243690e-04    3.85250134e-01
 30000.000000    7.85593879e-04    0.00000000e+00    3.92796939e-04    3.87405883e-01
 30250.000000    7.84644911e-04    0.00000000e+00    3.92322456e-04    3.89570917e-01
 30500.000000    7.83643193e-04    0.00000000e+00    3.91821597e-04    3.91724565e-01
 30750.000000    7.82591542e-04    0.00000000e+00    3.91295771e-04    3.93846249e-01
 31000.000000    7.81494618e-04    0.00000000e+00    3.90747309e-04    3.95912373e-01
 31250.000000    7.80362493e-04    0.00000000e+00    3.90181247e-04    3.97902371e-01
 31500.000000    7.79205869e-04    0.00000000e+00    3.89602934e-04    3.99801910e-01
 31750.000000    7.78033430e-04    0.00000000e+00    3.89016715e-04    4.01598311e-01
 32000.000000    7.76856079e-04    0.00000000e+00    3.88428039e-04    4.03281266e-01
 32250.000000    7.75685633e-04    0.00000000e+00    3.87842817e-04    4.04848258e-01
 32500.000000    7.74529953e-04    0.00000000e+00    3.87264977e-04    4.06302566e-01
 32750.000000    7.73395048e-04    0.00000000e+00    3.86697524e-04    4.07649093e-01
 33000.000000    7.72288271e-04    0.00000000e+00    3.86144136e-04    4.08897351e-01
 33250.000000    7.71214076e-04    0.00000000e+00    3.85607038e-04    4.10063098e-01
 33500.000000    7.70172862e-04    0.00000000e+00    3.85086431e-04    4.11163233e-01
 33750.000000    7.69165937e-04    0.00000000e+00    3.84582968e-04    4.12214190e-01
 34000.000000    7.68194733e-04    0.00000000e+00    3.84097367e-04    4.13235023e-01
 34250.000000    7.67256896e-04    0.00000000e+00    3.83628448e-04    4.14245264e-01
 34500.000000    7.66349341e-04    0.00000000e+00    3.83174670e-04    4.15260457e-01
 34750.000000    7.65471478e-04    0.00000000e+00    3.82735739e-04    4.16293726e-01
 35000.000000    7.64621017e-04    0.00000000e+00    3.82310508e-04    4.17357480e-01
 35250.000000    7.63793124e-04    0.00000000e+00    3.81896562e-04    4.18459853e-01
 35500.000000    7.62985183e-04    0.00000000e+00    3.81492592e-04    4.19603558e-01
 35750.000000    7.62195634e-04    0.00000000e+00    3.81097817e-04    4.20789266e-01
 36000.000000    7.61419872e-04    0.00000000e+00    3.80709936e-04    4.22015458e-01
 36250.000000    7.60653199e-04    0.00000000e+00    3.80326600e-04    4.23275889e-01
 36500.000000    7.59893777e-04    0.00000000e+00    3.79946888e-04    4.24561672e-01
 36750.000000    7.59138458e-04    0.00000000e+00    3.79569229e-04    4.25864101e-01
 37000.000000    7.58382019e-04    0.00000000e+00    3.79191010e-04    4.27173063e-01
 37250.000000    7.57621867e-04    0.00000000e+00    3.78810934e-04    4.28476567e-01
 37500.000000    7.56857210e-04    0.00000000e+00    3.78428605e-04    4.29763968e-01
 37750.000000    7.56085210e-04    0.00000000e+00    3.78042605e-04    4.31026600e-01
 38000.000000    7.55303802e-04    0.00000000e+00    3.77651901e-04    4.32255799e-01
 38250.000000    7.54514637e-04    0.00000000e+00    3.77257319e-04    4.33444132e-01
 38500.000000    7.53719201e-04    0.00000000e+00    3.76859600e-04    4.34587548e-01
 38750.000000    7.52917644e-04    0.00000000e+00    3.76458822e-04    4.35683897e-01
 39000.000000    7.52112853e-04    0.00000000e+00    3.76056426e-04    4.36731694e-01
 39250.000000    7.51309611e-04    0.00000000e+00    3.75654805e-04    4.37731928e-01
 39500.000000    7.50510520e-04    0.00000000e+00    3.75255260e-04    4.38688203e-01
 39750.000000    7.49717977e-04    0.00000000e+00    3.74858988e-04    4.39604479e-01
 40000.000000    7.48936805e-04    0.00000000e+00    3.74468403e-04    4.40485141e-01
 40250.000000    7.48170684e-04    0.00000000e+00    3.74085342e-04    4.41336319e-01
 40500.000000    7.47420645e-04    0.00000000e+00    3.73710323e-04    4.42164468e-01
 40750.000000    7.46688788e-04    0.00000000e+00    3.73344394e-04    4.42974860e-01
 41000.000000    7.45978014e-04    0.00000000e+00    3.72989007e-04    4.43772709e-01
 41250.000000    7.45288402e-04    0.00000000e+00    3.72644201e-04    4.44563459e-01
 41500.000000    7.44618966e-04    0.00000000e+00    3.72309483e-04    4.45351036e-01
 41750.000000    7.43970576e-04    0.00000000e+00    3.71985288e-04    4.46137840e-01
 42000.000000    7.43343184e-04    0.00000000e+00    3.71671592e-04    4.46926114e-01
 42250.000000    7.42734350e-04    0.00000000e+00    3.71367175e-04    4.47717318e-01
 42500.000000    7.42142720e-04    0.00000000e+00    3.71071360e-04    4.48511123e-01
 42750.000000    7.41568249e-04    0.00000000e+00    3.70784124e-04    4.49306572e-01
 43000.000000    7.41008887e-04    0.00000000e+00    3.70504444e-04    4.50102848e-01
 43250.000000    7.40461863e-04    0.00000000e+00    3.70230931e-04    4.50898239e-01
 43500.000000    7.39926486e-04    0.00000000e+00    3.69963243e-04    4.51690221e-01
 43750.000000    7.39401852e-04    0.00000000e+00    3.69700926e-04    4.52476803e-01
 44000.000000    7.38885148e-04    0.00000000e+00    3.69442574e-04    4.53256306e-01
 44250.000000    7.38374643e-04    0.00000000e+00    3.69187322e-04    4.54026544e-01
 44500.000000    7.37870208e-04    0.00000000e+00    3.68935104e-04    4.54785624e-01
 44750.000000    7.37370300e-04    0.00000000e+00    3.68685150e-04    4.55532624e-01
 45000.000000    7.36872789e-04    0.00000000e+00    3.68436395e-04    4.56266710e-01
 45250.000000    7.36377626e-04    0.00000000e+00    3.68188813e-04    4.56986914e-01
 45500.000000    7.35885045e-04    0.00000000e+00    3.67942523e-04    4.57693043e-01
 45750.000000    7.35393785e-04    0.00000000e+00    3.67696892e-04    4.58385475e-01
 46000.000000    7.34903552e-04    0.00000000e+00    3.67451776e-04    4.59064292e-01
 46250.000000    7.34415743e-04    0.00000000e+00    3.67207872e-04    4.59729675e-01
 46500.000000    7.33930727e-04    0.00000000e+00    3.66965364e-04    4.60382426e-01
 46750.000000    7.33448172e-04    0.00000000e+00    3.66724086e-04    4.61023251e-01
 47000.000000    7.32969417e-04    0.00000000e+00    3.66484709e-04    4.61652418e-01
 47250.000000    7.32496087e-04    0.00000000e+00    3.66248044e-04    4.62270454e-01
 47500.000000    7.32028244e-04    0.00000000e+00    3.66014122e-04    4.62878101e-01
 47750.000000    7.31566340e-04    0.00000000e+00    3.65783170e-04    4.63475629e-01
 48000.000000    7.31112105e-04    0.00000000e+00    3.65556052e-04    4.64063111e-01
 48250.000000    7.30666230e-04    0.00000000e+00    3.65333115e-04    4.64640959e-01
 48500.000000    7.30228382e-04    0.00000000e+00    3.65114191e-04    4.65209483e-01
 48750.000000    7.29799381e-04    0.00000000e+00    3.64899691e-04    4.65768594e-01
 49000.000000    7.29380298e-04    0.00000000e+00    3.64690149e-04    4.66318393e-01
 49250.000000    7.28970719e-04    0.00000000e+00    3.64485360e-04    4.66859271e-01
 49500.000000    7.28570322e-04    0.00000000e+00    3.64285161e-04    4.67391375e-01
 49750.000000    7.28179922e-04    0.00000000e+00    3.64089961e-04    4.67914770e-01
 50000.000000    7.27799561e-04    0.00000000e+00    3.63899780e-04    4.68429909e-01
 50250.000000    7.27428289e-04    0.00000000e+00    3.63714144e-04    4.68937317e-01
 50500.000000    7.27066093e-04    0.00000000e+00    3.63533047e-04    4.69437271e-01
 50750.000000    7.26713358e-04    0.00000000e+00    3.63356679e-04    4.69930205e-01
 51000.000000    7.26369234e-04    0.00000000e+00    3.63184617e-04    4.70416812e-01
 51250.000000    7.26032824e-04    0.00000000e+00    3.63016412e-04    4.70897582e-01
 51500.000000    7.25704281e-04    0.00000000e+00    3.62852140e-04    4.71372826e-01
 51750.000000    7.25383249e-04    0.00000000e+00    3.62691624e-04    4.71843040e-01
 52000.000000    7.25068460e-04    0.00000000e+00    3.62534230e-04    4.72308681e-01
 52250.000000    7.24759410e-04    0.00000000e+00    3.62379705e-04    4.72769859e-01
 52500.000000    7.24456113e-04    0.00000000e+00    3.62228057e-04    4.73226626e-01
 52750.000000    7.24157639e-04    0.00000000e+00    3.62078819e-04    4.73679124e-01
 53000.000000    7.23862967e-04    0.00000000e+00    3.61931483e-04    4.74127242e-01
 53250.000000    7.23572096e-04    0.00000000e+00    3.61786048e-04    4.74570622e-01
 53500.000000    7.23284825e-04    0.00000000e+00    3.61642412e-04    4.75008993e-01
 53750.000000    7.23000218e-04    0.00000000e+00    3.61500109e-04    4.75442082e-01
 54000.000000    7.22718013e-04    0.00000000e+00    3.61359007e-04    4.75869378e-01
 54250.000000    7.22438597e-04    0.00000000e+00    3.61219298e-04    4.76290375e-01
 54500.000000    7.22161676e-04    0.00000000e+00    3.61080838e-04    4.76704756e-01
 54750.000000    7.21886841e-04    0.00000000e+00    3.60943420e-04    4.77112169e-01
 55000.000000    7.21614586e-04    0.00000000e+00    3.60807293e-04    4.77512198e-01
 55250.000000    7.21345361e-04    0.00000000e+00    3.60672680e-04    4.77904646e-01
 55500.000000    7.21078936e-04    0.00000000e+00    3.60539468e-04    4.78289494e-01
 55750.000000    7.20815534e-04    0.00000000e+00    3.60407767e-04    4.78666687e-01
 56000.000000    7.20555942e-04    0.00000000e+00    3.60277971e-04    4.79036272e-01
 56250.000000    7.20300356e-04    0.00000000e+00    3.60150178e-04    4.79398551e-01
 56500.000000    7.20048687e-04    0.00000000e+00    3.60024344e-04    4.79753874e-01
 56750.000000    7.19801512e-04    0.00000000e+00    3.59900756e-04    4.80102557e-01
 57000.000000    7.19559364e-04    0.00000000e+00    3.59779682e-04    4.80445060e-01
 57250.000000    7.19322085e-04    0.00000000e+00    3.59661043e-04    4.80781955e-01
 57500.000000    7.19089729e-04    0.00000000e+00    3.59544864e-04    4.81113712e-01
 57750.000000    7.18862805e-04    0.00000000e+00    3.59431402e-04    4.81440760e-01
 58000.000000    7.18641305e-04    0.00000000e+00    3.59320653e-04    4.81763604e-01
